~Version information
VERS.                          2.0 : glas (c) softlandia@gmail.com
WRAP.                          NO  : ONE LINE PER DEPTH STEP
~Well information
 STRT.M    0.050                                    :START DEPTH
 STOP.M  136.600                                    :STOP  DEPTH
 STEP.M    0.050                                    :STEP
 NULL.  -99999.000                                   :NULL VALUE
 WELL.   Scorpio E1                                 :WELL
~Curve Information Section
 DEPT.M                    :
 CALI.MM                     :
 DFAR.G/CM3                     :
 DNEAR.G/CM3                     :
 GAMN.GAPI                     :
 NEUT.CPS                     :
 PR.OHM/M                     :
 SP.MV                     :
 COND.MS/M                     :
~ASCII Log Data
#  DEPT    | CALI    | DFAR    | DNEAR   | GAMN    | NEUT    | PR      | SP      | COND    |
12.0000    101.7800   0.8830     0.8140     65.0846    1152.0100  50499.9000 100.5920   822.6800   
12.0500    101.7380   0.8830     0.8430     65.0800    1233.9900  50499.9000 100.5100   810.8240   
12.1000    101.7380   0.8730     0.8080     53.4612    1212.0000  50499.9000 100.5800   801.4390   
12.1500    101.8580   0.8780     0.8130     79.0231    1161.0100  50499.9000 100.5550   796.7450   
12.2000    101.7980   0.8780     0.7870     41.8448    1080.0200  50499.9000 100.5520   785.1370   
12.2500    101.7560   0.8690     0.7650     81.3450    1188.9800  50499.9000 100.5370   772.2930   
12.3000    101.8040   0.8820     0.8110     67.4063    1164.0000  50499.9000 100.5800   757.9660   
12.3500    101.7980   0.8800     0.8230     74.3767    1169.0000  50499.9000 100.5430   757.9650   
12.4000    101.8520   0.8770     0.8230     62.7573    1202.0000  50499.9000 100.5430   735.7380   
12.4500    101.8700   0.8780     0.8260     58.1080    1168.0100  50499.9000 100.5860   716.9670   
12.5000    101.9060   0.8700     0.8500     60.4316    1179.0000  50499.9000 100.5400   715.4810   
12.5500    101.8160   0.8830     0.8620     69.7281    1146.0000  50499.9000 100.5100   713.9990   
12.6000    101.7140   0.8640     0.8150     53.4621    1169.0000  50499.9000 100.5490   730.5450   
12.6500    101.7680   0.8630     0.8020     81.3478    1182.0000  50499.9000 100.5190   738.6980   
12.7000    101.8160   0.8690     0.8080     51.1413    1156.0100  50499.9000 100.5370   757.4670   
12.7500    101.8280   0.8750     0.7970     83.6700    1154.0000  50499.9000 100.5400   775.7460   
12.8000    101.6960   0.8650     0.9070     58.1094    1142.0000  50499.9000 100.5430   790.3210   
12.8500    101.6900   0.8670     0.8080     65.0787    1146.0000  50499.9000 100.5160   790.3220   
12.9000    101.7440   0.8510     0.8260     72.0522    1171.0000  50499.9000 100.4940   806.8690   
12.9500    101.6600   0.8510     0.7960     53.4629    1119.0100  50499.9000 100.5280   816.7490   
13.0000    101.6000   0.8370     0.8150     67.4029    1070.0100  50499.9000 100.5310   826.3830   
13.0500    101.7080   0.8390     0.8130     74.3773    1150.9900  50499.9000 100.5190   835.5220   
13.1000    101.7800   0.8380     0.8280     81.3497    1256.9800  50499.9000 100.5310   848.8580   
13.1500    101.7920   0.8370     0.8090     79.0263    1291.0000  50499.9000 100.5130   861.2100   
13.2000    101.6180   0.8470     0.7610     97.6171    1301.0000  50499.9000 100.5310   861.2110   
13.2500    101.5760   0.8460     0.7970     65.0850    1371.9900  50499.9000 100.5430   881.4620   
13.3000    101.6060   0.8450     0.7670     85.9970    1358.0000  50499.9000 100.5280   885.4170   
13.3500    101.5040   0.8220     0.8390     65.0840    1368.0000  50499.9000 100.4820   885.9110   
13.4000    101.5160   0.7930     0.8760     85.9966    1482.9900  50499.9000 100.5400   889.6160   
13.4500    101.5400   0.7260     0.8960     65.0844    1423.0100  50499.9000 100.5190   895.2960   
13.5000    101.5460   0.7250     0.8970     111.5590   1350.0100  50499.9000 100.5100   900.7300   
13.5500    101.4500   0.7250     0.8940     74.3815    1156.0200  50499.9000 100.5430   905.6710   
13.6000    101.6120   0.7630     0.8990     90.6449    1013.0300  50499.9000 100.4850   906.6590   
13.6500    101.7440   0.7550     0.8350     81.3521    876.0160   50499.9000 100.4730   894.8040   
13.7000    101.7620   0.7930     0.8090     58.1119    798.0160   50499.9000 100.4970   883.1960   
13.7500    101.7620   0.8360     0.7830     62.7553    629.0260   50499.9000 100.4760   915.5460   
13.8000    101.7920   0.9590     0.6830     69.7283    618.0010   50499.9000 100.4760   945.1880   
13.8500    101.8160   1.0450     0.6570     76.7007    659.9920   50499.9000 100.4700   945.9320   
13.9000    101.6960   1.1330     0.8000     58.1091    689.9970   50499.9000 100.4760   922.7170   
13.9500    101.6960   1.2310     1.1110     79.0216    765.9840   50499.9000 100.4910   757.0120   
14.0000    101.6660   1.3400     1.4340     60.4348    753.0020   50499.9000 100.4330   941.7050   
14.0500    101.6900   1.3860     1.4630     67.4043    741.0010   50499.9000 100.4240   1071.6400  
14.1000    101.8580   1.3580     1.4620     74.3767    734.0010   50499.9000 100.4000   1215.1300  
14.1500    101.8100   1.3570     1.4710     53.4614    767.9960   50499.9000 100.3810   863.9680   
14.2000    101.7920   1.3540     1.5580     55.7825    730.0080   50499.9000 100.3420   699.7070   
14.2500    101.8280   1.3780     1.6660     67.4032    747.9970   50499.9000 100.3600   333.1810   
14.3000    101.8100   1.3720     1.7420     62.7564    762.9990   50499.9000 100.2960   36.2593    
14.3500    101.5400   1.4230     1.7780     62.7560    793.9940   50499.9000 100.3140   26.8468    
14.4000    101.5400   1.4250     1.6670     53.4601    776.0020   50499.9000 100.2750   24.3753    
14.4500    101.5160   1.4170     1.6080     74.3736    854.9830   50499.9000 100.2990   89.3224    
14.5000    101.5160   1.4160     1.5420     46.4903    827.0040   50499.9000 100.2140   479.2890   
14.5500    101.4980   1.4120     1.5570     60.4307    886.9940   50499.9000 100.2140   282.7560   
14.6000    101.5040   1.4480     1.6720     60.4320    869.0030   50499.9000 100.3750   398.8050   
14.6500    101.5400   1.4300     1.5900     69.7279    863.0010   50499.9000 100.5550   411.6700   
14.7000    101.3480   1.4130     1.5780     32.5478    869.9990   50499.9000 100.6070   697.6370   
14.7500    101.3660   1.4360     1.5810     88.3145    884.9980   50499.9000 100.6100   1003.4400  
14.8000    101.4200   1.3820     1.5140     85.9992    919.9970   50499.9000 100.5980   1050.1600  
14.8500    101.4080   1.3910     1.5430     92.9707    879.0080   50499.9000 100.6010   944.4700   
14.9000    101.3600   1.4090     1.5060     81.3523    909.9960   50499.9000 100.5620   819.7290   
14.9500    101.3180   1.3840     1.5160     60.4364    931.9950   50499.9000 100.5620   805.8860   
15.0000    101.3240   1.3820     1.4390     72.0512    954.9960   50499.9000 100.5680   758.2190   
15.0500    101.3480   1.3900     1.5100     76.7016    986.9970   50499.9000 100.5620   733.7610   
15.1000    101.3070   1.3980     1.5000     123.1790   970.0030   50499.9000 100.5740   685.3560   
15.1500    101.2830   1.4230     1.5290     60.4392    953.0020   50499.9000 100.5490   647.0660   
15.2000    101.3780   1.4270     1.5380     67.4035    925.0060   50499.9000 100.5920   631.5040   
15.2500    101.2950   1.4180     1.5400     106.9120   899.0040   50499.9000 100.5740   613.2260   
15.3000    101.2830   1.4090     1.4680     83.6772    952.9950   50499.9000 100.5620   589.5130   
15.3500    101.3960   1.3980     1.4790     85.9986    967.9970   50499.9000 100.6620   570.7430   
15.4000    101.3600   1.4380     1.4710     74.3793    926.0050   50499.9000 100.6040   560.3660   
15.4500    101.3720   1.4370     1.5500     58.1104    924.0000   50499.9000 100.6160   544.5600   
15.5000    101.3480   1.4290     1.5430     95.2903    936.9980   50499.9000 100.6100   528.5040   
15.5500    101.4080   1.4200     1.5370     69.7314    968.9970   50499.9000 100.6320   525.2910   
15.6000    101.4020   1.4370     1.5530     76.7007    922.0090   50499.9000 100.6010   510.7210   
15.6500    101.4980   1.4480     1.5110     97.6186    934.9990   50499.9000 100.5860   505.0380   
15.7000    101.4320   1.4660     1.5500     81.3544    931.0010   50499.9000 100.5950   504.0490   
15.7500    101.5160   1.4370     1.4850     72.0544    945.9980   50499.9000 100.5980   495.4050   
15.8000    101.5940   1.4370     1.4810     69.7292    913.0030   50499.9000 100.6130   492.1930   
15.8500    101.5280   1.4310     1.5090     76.7007    903.0020   50499.9000 100.5710   481.3270   
15.9000    101.5340   1.4520     1.5240     72.0535    964.9930   50499.9000 100.5860   478.8550   
15.9500    101.5280   1.4400     1.5390     67.4060    937.0060   50499.9000 100.6070   471.9400   
16.0000    101.5280   1.4630     1.5680     69.7286    925.0020   50499.9000 100.6010   466.2590   
16.0500    101.5280   1.4780     1.5590     65.0804    909.0010   50499.9000 100.6160   465.0230   
16.1000    101.6600   1.4920     1.5560     69.7281    920.9980   50499.9000 100.6290   453.6630   
16.1500    101.7320   1.4870     1.5680     85.9971    924.0000   50499.9000 100.6290   449.7090   
16.2000    101.6960   1.4710     1.6060     95.2939    906.0040   50499.9000 100.6410   448.9680   
16.2500    101.7140   1.4970     1.5800     113.8880   980.9890   50499.9000 100.6320   448.9680   
16.3000    101.6960   1.4870     1.6000     74.3810    949.0020   50499.9000 100.6320   444.2750   
16.3500    101.6600   1.4780     1.5870     90.6449    908.0080   50499.9000 100.6130   437.8540   
16.4000    101.6660   1.5030     1.5850     88.3233    899.0010   50499.9000 100.6160   433.9010   
16.4500    101.7800   1.4870     1.5570     83.6761    934.9920   50499.9000 100.6160   432.9130   
16.5000    101.7200   1.4880     1.5680     60.4355    956.9970   50499.9000 100.6040   423.5280   
16.5500    101.6240   1.4910     1.5760     104.5900   969.9990   50499.9000 100.6290   413.6480   
16.6000    101.6960   1.4860     1.5720     123.1840   954.0030   50499.9000 100.6530   399.5710   
16.6500    101.6960   1.5010     1.5980     88.3270    933.0020   50499.9000 100.6410   386.4780   
16.7000    101.6840   1.4950     1.5470     51.1435    1023.9800  50499.9000 100.5980   381.5380   
16.7500    101.7080   1.4930     1.5820     79.0217    950.0110   50499.9000 100.6320   374.1280   
16.8000    101.6900   1.4830     1.5300     58.1086    1002.0000  50499.9000 100.6260   362.7660   
16.8500    101.6900   1.4900     1.5340     74.3749    1030.9900  50499.9000 100.6010   349.4300   
16.9000    101.7620   1.4740     1.5250     67.4058    1074.0000  50499.9000 100.5950   345.4750   
16.9500    101.8400   1.5050     1.5430     120.8520   1161.9800  50499.9000 100.6160   334.6090   
17.0000    101.6360   1.4820     1.5620     69.7368    1113.0100  50499.9000 100.6040   328.9270   
17.0500    101.6120   1.4890     1.5270     69.7290    1051.0000  50499.9000 100.6290   303.4870   
17.1000    101.5760   1.4760     1.5240     99.9392    1067.0000  50499.9000 100.6200   270.8870   
17.1500    101.6180   1.4550     1.5220     55.7881    1167.9900  50499.9000 100.6070   256.5570   
17.2000    101.4920   1.4820     1.5320     83.6686    1312.9700  50499.9000 100.5950   221.4890   
17.2500    102.7150   1.4870     1.4990     109.2380   1478.9700  50499.9000 100.5310   227.9020   
17.3000    101.1570   1.4770     1.4560     76.7045    1536.0000  50499.9000 100.5550   199.2530   
17.3500    101.4320   1.4550     1.5480     83.6737    1584.9900  50499.9000 100.5310   168.8760   
17.4000    101.6360   1.4440     1.5300     69.7306    1592.0000  50499.9000 100.5190   128.6140   
17.4500    101.5940   1.4550     1.4800     62.7576    1483.0200  50499.9000 100.5620   125.6460   
17.5000    101.4740   1.4600     1.4600     76.6999    1557.9900  50499.9000 100.5190   108.8520   
17.5500    101.5460   1.4180     1.4870     76.7020    1546.0000  50499.9000 100.5430   101.9340   
17.6000    101.3660   1.4290     1.4890     81.3501    1604.9900  50499.9000 100.5490   98.2287    
17.6500    101.3180   1.3740     1.4900     85.9985    1546.0100  50499.9000 100.5370   85.1385    
17.7000    101.3840   1.4010     1.4770     90.6469    1518.0100  50499.9000 100.5490   76.2470    
17.7500    101.3840   1.3910     1.4660     81.3524    1469.0100  50499.9000 100.5650   78.4677    
17.8000    101.2950   1.3740     1.4900     104.5910   1438.0000  50499.9000 100.5550   65.1310    
17.8500    101.2230   1.3820     1.4650     88.3261    1403.0100  50499.9000 100.5550   66.1178    
17.9000    101.2410   1.4170     1.4820     90.6477    1413.0000  50499.9000 100.5370   68.8347    
17.9500    101.2350   1.3780     1.4510     95.2949    1316.0200  50499.9000 100.5580   69.3289    
18.0000    101.2590   1.3810     1.4260     88.3241    1347.0000  50499.9000 100.5620   65.3776    
